[Measurement conditions]
Sample identification,
Comment - 1,"Configuration=Bracket Flat sample, Owner=User-1, Creation date=15/02/2016 11:36:32"
Comment - 2,"Goniometer=PW3050/60 (Theta/2Theta); Minimum step size 2Theta:0.001; Minimum step size Omega:0.001"
Comment - 3,"Sample stage=PW3071/xx Bracket"
Comment - 4,"Diffractometer system=XPERT-PRO"
Comment - 5,"Measurement program=C:\PANalytical\Data Collector\Programs\Tass-10-90-30min.xrdmp, Identifier={FC66B191-8FD9-413B-BED1-E375FF3A0E03}"
Anode material,Cu
K-Alpha1 wavelength,1.5405980
K-Alpha2 wavelength,1.5444260
Ratio K-Alpha2/K-Alpha1,0.000
Divergence slit,Fixed,  1
Monochromator used,YES
Generator voltage, 40
Tube current, 30
File date and time,24/janv./2019 10:07
Unit cell,
h k l, 0 0 0
Scan axis,Gonio
Scan range,10.007000001,79.993792989
Scan step size,0.0334225
No. of points, 2094
Scan type,CONTINUOUS
Time per step,59.690
[Scan points]
Angle,Intensity
10.023711270,602.0
10.057133807,557.0
10.090556344,604.0
10.123978882,652.0
10.157401419,554.0
10.190823956,594.0
10.224246493,571.0
10.257669031,544.0
10.291091568,586.0
10.324514105,561.0
10.357936642,620.0
10.391359180,575.0
10.424781717,580.0
10.458204254,547.0
10.491626791,586.0
10.525049329,601.0
10.558471866,603.0
10.591894403,625.0
10.625316940,583.0
10.658739478,613.0
10.692162015,565.0
10.725584552,562.0
10.759007089,594.0
10.792429627,518.0
10.825852164,590.0
10.859274701,554.0
10.892697238,605.0
10.926119776,592.0
10.959542313,613.0
10.992964850,598.0
11.026387387,603.0
11.059809925,593.0
11.093232462,590.0
11.126654999,627.0
11.160077536,625.0
11.193500074,587.0
11.226922611,617.0
11.260345148,574.0
11.293767685,552.0
11.327190222,605.0
11.360612760,563.0
11.394035297,605.0
11.427457834,569.0
11.460880371,637.0
11.494302909,549.0
11.527725446,547.0
11.561147983,603.0
11.594570520,605.0
11.627993058,589.0
11.661415595,600.0
11.694838132,604.0
11.728260669,542.0
11.761683207,617.0
11.795105744,615.0
11.828528281,575.0
11.861950818,579.0
11.895373356,635.0
11.928795893,598.0
11.962218430,580.0
11.995640967,613.0
12.029063505,621.0
12.062486042,616.0
12.095908579,611.0
12.129331116,577.0
12.162753654,605.0
12.196176191,643.0
12.229598728,594.0
12.263021265,607.0
12.296443803,604.0
12.329866340,632.0
12.363288877,601.0
12.396711414,601.0
12.430133952,618.0
12.463556489,625.0
12.496979026,628.0
12.530401563,616.0
12.563824100,645.0
12.597246638,643.0
12.630669175,663.0
12.664091712,627.0
12.697514249,638.0
12.730936787,605.0
12.764359324,629.0
12.797781861,651.0
12.831204398,683.0
12.864626936,617.0
12.898049473,634.0
12.931472010,651.0
12.964894547,645.0
12.998317085,682.0
13.031739622,654.0
13.065162159,647.0
13.098584696,672.0
13.132007234,605.0
13.165429771,700.0
13.198852308,674.0
13.232274845,604.0
13.265697383,638.0
13.299119920,631.0
13.332542457,634.0
13.365964994,612.0
13.399387532,621.0
13.432810069,606.0
13.466232606,634.0
13.499655143,624.0
13.533077681,658.0
13.566500218,624.0
13.599922755,641.0
13.633345292,661.0
13.666767830,690.0
13.700190367,653.0
13.733612904,622.0
13.767035441,689.0
13.800457978,645.0
13.833880516,680.0
13.867303053,627.0
13.900725590,646.0
13.934148127,642.0
13.967570665,658.0
14.000993202,677.0
14.034415739,653.0
14.067838276,672.0
14.101260814,647.0
14.134683351,644.0
14.168105888,658.0
14.201528425,691.0
14.234950963,691.0
14.268373500,689.0
14.301796037,660.0
14.335218574,686.0
14.368641112,676.0
14.402063649,672.0
14.435486186,743.0
14.468908723,651.0
14.502331261,716.0
14.535753798,647.0
14.569176335,677.0
14.602598872,662.0
14.636021410,720.0
14.669443947,684.0
14.702866484,699.0
14.736289021,669.0
14.769711559,676.0
14.803134096,734.0
14.836556633,702.0
14.869979170,662.0
14.903401708,688.0
14.936824245,680.0
14.970246782,712.0
15.003669319,716.0
15.037091856,662.0
15.070514394,703.0
15.103936931,708.0
15.137359468,750.0
15.170782005,717.0
15.204204543,742.0
15.237627080,757.0
15.271049617,718.0
15.304472154,746.0
15.337894692,721.0
15.371317229,786.0
15.404739766,734.0
15.438162303,699.0
15.471584841,714.0
15.505007378,732.0
15.538429915,737.0
15.571852452,785.0
15.605274990,758.0
15.638697527,737.0
15.672120064,727.0
15.705542601,756.0
15.738965139,743.0
15.772387676,720.0
15.805810213,726.0
15.839232750,763.0
15.872655288,788.0
15.906077825,781.0
15.939500362,797.0
15.972922899,737.0
16.006345437,788.0
16.039767974,772.0
16.073190511,772.0
16.106613048,741.0
16.140035586,821.0
16.173458123,773.0
16.206880660,804.0
16.240303197,740.0
16.273725734,848.0
16.307148272,770.0
16.340570809,714.0
16.373993346,814.0
16.407415883,807.0
16.440838421,823.0
16.474260958,774.0
16.507683495,806.0
16.541106032,821.0
16.574528570,809.0
16.607951107,795.0
16.641373644,790.0
16.674796181,802.0
16.708218719,799.0
16.741641256,796.0
16.775063793,829.0
16.808486330,773.0
16.841908868,837.0
16.875331405,765.0
16.908753942,822.0
16.942176479,806.0
16.975599017,835.0
17.009021554,826.0
17.042444091,851.0
17.075866628,849.0
17.109289166,843.0
17.142711703,825.0
17.176134240,864.0
17.209556777,804.0
17.242979315,822.0
17.276401852,829.0
17.309824389,868.0
17.343246926,843.0
17.376669464,902.0
17.410092001,845.0
17.443514538,864.0
17.476937075,866.0
17.510359612,793.0
17.543782150,817.0
17.577204687,895.0
17.610627224,862.0
17.644049761,832.0
17.677472299,835.0
17.710894836,802.0
17.744317373,834.0
17.777739910,856.0
17.811162448,826.0
17.844584985,847.0
17.878007522,842.0
17.911430059,831.0
17.944852597,821.0
17.978275134,879.0
18.011697671,835.0
18.045120208,766.0
18.078542746,831.0
18.111965283,819.0
18.145387820,870.0
18.178810357,852.0
18.212232895,848.0
18.245655432,813.0
18.279077969,850.0
18.312500506,838.0
18.345923044,856.0
18.379345581,859.0
18.412768118,875.0
18.446190655,876.0
18.479613193,849.0
18.513035730,855.0
18.546458267,854.0
18.579880804,919.0
18.613303342,842.0
18.646725879,822.0
18.680148416,861.0
18.713570953,888.0
18.746993490,847.0
18.780416028,910.0
18.813838565,829.0
18.847261102,873.0
18.880683639,868.0
18.914106177,833.0
18.947528714,855.0
18.980951251,848.0
19.014373788,902.0
19.047796326,885.0
19.081218863,876.0
19.114641400,795.0
19.148063937,851.0
19.181486475,890.0
19.214909012,860.0
19.248331549,864.0
19.281754086,860.0
19.315176624,843.0
19.348599161,884.0
19.382021698,892.0
19.415444235,855.0
19.448866773,868.0
19.482289310,842.0
19.515711847,877.0
19.549134384,873.0
19.582556922,890.0
19.615979459,819.0
19.649401996,814.0
19.682824533,845.0
19.716247071,846.0
19.749669608,818.0
19.783092145,814.0
19.816514682,860.0
19.849937219,841.0
19.883359757,837.0
19.916782294,810.0
19.950204831,846.0
19.983627368,839.0
20.017049906,818.0
20.050472443,853.0
20.083894980,846.0
20.117317517,824.0
20.150740055,797.0
20.184162592,874.0
20.217585129,855.0
20.251007666,818.0
20.284430204,774.0
20.317852741,820.0
20.351275278,836.0
20.384697815,802.0
20.418120353,796.0
20.451542890,842.0
20.484965427,833.0
20.518387964,804.0
20.551810502,827.0
20.585233039,862.0
20.618655576,836.0
20.652078113,850.0
20.685500651,847.0
20.718923188,793.0
20.752345725,907.0
20.785768262,826.0
20.819190800,885.0
20.852613337,860.0
20.886035874,779.0
20.919458411,834.0
20.952880949,843.0
20.986303486,837.0
21.019726023,840.0
21.053148560,848.0
21.086571097,814.0
21.119993635,850.0
21.153416172,828.0
21.186838709,815.0
21.220261246,829.0
21.253683784,801.0
21.287106321,812.0
21.320528858,828.0
21.353951395,758.0
21.387373933,850.0
21.420796470,772.0
21.454219007,831.0
21.487641544,802.0
21.521064082,809.0
21.554486619,790.0
21.587909156,850.0
21.621331693,801.0
21.654754231,798.0
21.688176768,811.0
21.721599305,832.0
21.755021842,808.0
21.788444380,854.0
21.821866917,804.0
21.855289454,814.0
21.888711991,785.0
21.922134529,770.0
21.955557066,822.0
21.988979603,865.0
22.022402140,837.0
22.055824678,798.0
22.089247215,778.0
22.122669752,772.0
22.156092289,825.0
22.189514827,768.0
22.222937364,768.0
22.256359901,822.0
22.289782438,819.0
22.323204975,804.0
22.356627513,774.0
22.390050050,770.0
22.423472587,805.0
22.456895124,820.0
22.490317662,792.0
22.523740199,807.0
22.557162736,754.0
22.590585273,780.0
22.624007811,826.0
22.657430348,814.0
22.690852885,805.0
22.724275422,718.0
22.757697960,770.0
22.791120497,796.0
22.824543034,791.0
22.857965571,770.0
22.891388109,770.0
22.924810646,857.0
22.958233183,792.0
22.991655720,735.0
23.025078258,783.0
23.058500795,784.0
23.091923332,755.0
23.125345869,757.0
23.158768407,756.0
23.192190944,748.0
23.225613481,771.0
23.259036018,745.0
23.292458556,709.0
23.325881093,757.0
23.359303630,774.0
23.392726167,762.0
23.426148705,779.0
23.459571242,777.0
23.492993779,684.0
23.526416316,788.0
23.559838853,769.0
23.593261391,657.0
23.626683928,710.0
23.660106465,686.0
23.693529002,725.0
23.726951540,728.0
23.760374077,752.0
23.793796614,697.0
23.827219151,704.0
23.860641689,737.0
23.894064226,713.0
23.927486763,724.0
23.960909300,800.0
23.994331838,699.0
24.027754375,822.0
24.061176912,728.0
24.094599449,746.0
24.128021987,708.0
24.161444524,694.0
24.194867061,729.0
24.228289598,752.0
24.261712136,766.0
24.295134673,708.0
24.328557210,739.0
24.361979747,744.0
24.395402285,705.0
24.428824822,749.0
24.462247359,765.0
24.495669896,685.0
24.529092434,694.0
24.562514971,739.0
24.595937508,748.0
24.629360045,711.0
24.662782583,752.0
24.696205120,704.0
24.729627657,714.0
24.763050194,660.0
24.796472731,740.0
24.829895269,736.0
24.863317806,661.0
24.896740343,671.0
24.930162880,714.0
24.963585418,677.0
24.997007955,723.0
25.030430492,666.0
25.063853029,716.0
25.097275567,684.0
25.130698104,684.0
25.164120641,670.0
25.197543178,709.0
25.230965716,665.0
25.264388253,700.0
25.297810790,754.0
25.331233327,708.0
25.364655865,724.0
25.398078402,644.0
25.431500939,627.0
25.464923476,701.0
25.498346014,713.0
25.531768551,693.0
25.565191088,688.0
25.598613625,720.0
25.632036163,645.0
25.665458700,667.0
25.698881237,729.0
25.732303774,686.0
25.765726312,654.0
25.799148849,622.0
25.832571386,690.0
25.865993923,681.0
25.899416461,647.0
25.932838998,731.0
25.966261535,725.0
25.999684072,655.0
26.033106609,715.0
26.066529147,656.0
26.099951684,677.0
26.133374221,684.0
26.166796758,713.0
26.200219296,701.0
26.233641833,670.0
26.267064370,717.0
26.300486907,686.0
26.333909445,647.0
26.367331982,683.0
26.400754519,637.0
26.434177056,654.0
26.467599594,670.0
26.501022131,651.0
26.534444668,634.0
26.567867205,661.0
26.601289743,682.0
26.634712280,631.0
26.668134817,666.0
26.701557354,665.0
26.734979892,661.0
26.768402429,607.0
26.801824966,672.0
26.835247503,645.0
26.868670041,642.0
26.902092578,637.0
26.935515115,620.0
26.968937652,630.0
27.002360190,648.0
27.035782727,674.0
27.069205264,665.0
27.102627801,653.0
27.136050339,616.0
27.169472876,582.0
27.202895413,665.0
27.236317950,648.0
27.269740487,624.0
27.303163025,654.0
27.336585562,628.0
27.370008099,643.0
27.403430636,648.0
27.436853174,660.0
27.470275711,629.0
27.503698248,645.0
27.537120785,600.0
27.570543323,607.0
27.603965860,616.0
27.637388397,658.0
27.670810934,645.0
27.704233472,611.0
27.737656009,674.0
27.771078546,645.0
27.804501083,677.0
27.837923621,597.0
27.871346158,632.0
27.904768695,638.0
27.938191232,640.0
27.971613770,614.0
28.005036307,674.0
28.038458844,651.0
28.071881381,638.0
28.105303919,620.0
28.138726456,592.0
28.172148993,627.0
28.205571530,659.0
28.238994068,606.0
28.272416605,607.0
28.305839142,645.0
28.339261679,610.0
28.372684217,648.0
28.406106754,616.0
28.439529291,607.0
28.472951828,572.0
28.506374365,624.0
28.539796903,607.0
28.573219440,602.0
28.606641977,631.0
28.640064514,621.0
28.673487052,614.0
28.706909589,629.0
28.740332126,654.0
28.773754663,621.0
28.807177201,628.0
28.840599738,554.0
28.874022275,622.0
28.907444812,632.0
28.940867350,600.0
28.974289887,665.0
29.007712424,604.0
29.041134961,615.0
29.074557499,541.0
29.107980036,584.0
29.141402573,605.0
29.174825110,583.0
29.208247648,629.0
29.241670185,621.0
29.275092722,620.0
29.308515259,633.0
29.341937797,649.0
29.375360334,594.0
29.408782871,592.0
29.442205408,597.0
29.475627946,648.0
29.509050483,608.0
29.542473020,597.0
29.575895557,600.0
29.609318095,562.0
29.642740632,618.0
29.676163169,596.0
29.709585706,585.0
29.743008243,603.0
29.776430781,605.0
29.809853318,637.0
29.843275855,604.0
29.876698392,612.0
29.910120930,604.0
29.943543467,590.0
29.976966004,596.0
30.010388541,613.0
30.043811079,569.0
30.077233616,578.0
30.110656153,616.0
30.144078690,572.0
30.177501228,599.0
30.210923765,614.0
30.244346302,566.0
30.277768839,578.0
30.311191377,599.0
30.344613914,575.0
30.378036451,618.0
30.411458988,580.0
30.444881526,531.0
30.478304063,611.0
30.511726600,572.0
30.545149137,552.0
30.578571675,538.0
30.611994212,608.0
30.645416749,574.0
30.678839286,556.0
30.712261824,571.0
30.745684361,577.0
30.779106898,571.0
30.812529435,515.0
30.845951973,564.0
30.879374510,607.0
30.912797047,576.0
30.946219584,633.0
30.979642121,555.0
31.013064659,577.0
31.046487196,576.0
31.079909733,601.0
31.113332270,601.0
31.146754808,594.0
31.180177345,619.0
31.213599882,589.0
31.247022419,568.0
31.280444957,561.0
31.313867494,576.0
31.347290031,582.0
31.380712568,593.0
31.414135106,559.0
31.447557643,545.0
31.480980180,579.0
31.514402717,585.0
31.547825255,600.0
31.581247792,540.0
31.614670329,533.0
31.648092866,578.0
31.681515404,568.0
31.714937941,566.0
31.748360478,580.0
31.781783015,614.0
31.815205553,552.0
31.848628090,582.0
31.882050627,571.0
31.915473164,568.0
31.948895702,570.0
31.982318239,571.0
32.015740776,562.0
32.049163313,537.0
32.082585851,551.0
32.116008388,573.0
32.149430925,545.0
32.182853462,558.0
32.216275999,533.0
32.249698537,552.0
32.283121074,592.0
32.316543611,579.0
32.349966148,560.0
32.383388686,530.0
32.416811223,568.0
32.450233760,559.0
32.483656297,573.0
32.517078835,548.0
32.550501372,568.0
32.583923909,573.0
32.617346446,616.0
32.650768984,585.0
32.684191521,560.0
32.717614058,562.0
32.751036595,572.0
32.784459133,535.0
32.817881670,548.0
32.851304207,568.0
32.884726744,549.0
32.918149282,509.0
32.951571819,548.0
32.984994356,549.0
33.018416893,566.0
33.051839431,550.0
33.085261968,533.0
33.118684505,521.0
33.152107042,573.0
33.185529580,593.0
33.218952117,513.0
33.252374654,528.0
33.285797191,548.0
33.319219729,541.0
33.352642266,494.0
33.386064803,548.0
33.419487340,548.0
33.452909877,533.0
33.486332415,538.0
33.519754952,545.0
33.553177489,589.0
33.586600026,502.0
33.620022564,516.0
33.653445101,524.0
33.686867638,519.0
33.720290175,564.0
33.753712713,555.0
33.787135250,515.0
33.820557787,544.0
33.853980324,518.0
33.887402862,540.0
33.920825399,507.0
33.954247936,545.0
33.987670473,527.0
34.021093011,545.0
34.054515548,480.0
34.087938085,555.0
34.121360622,506.0
34.154783160,493.0
34.188205697,544.0
34.221628234,524.0
34.255050771,583.0
34.288473309,530.0
34.321895846,547.0
34.355318383,570.0
34.388740920,559.0
34.422163458,564.0
34.455585995,505.0
34.489008532,548.0
34.522431069,521.0
34.555853607,490.0
34.589276144,551.0
34.622698681,519.0
34.656121218,555.0
34.689543755,557.0
34.722966293,503.0
34.756388830,514.0
34.789811367,497.0
34.823233904,517.0
34.856656442,538.0
34.890078979,564.0
34.923501516,535.0
34.956924053,529.0
34.990346591,533.0
35.023769128,493.0
35.057191665,492.0
35.090614202,537.0
35.124036740,510.0
35.157459277,556.0
35.190881814,533.0
35.224304351,507.0
35.257726889,501.0
35.291149426,530.0
35.324571963,533.0
35.357994500,511.0
35.391417038,547.0
35.424839575,461.0
35.458262112,504.0
35.491684649,530.0
35.525107187,474.0
35.558529724,490.0
35.591952261,517.0
35.625374798,516.0
35.658797336,510.0
35.692219873,535.0
35.725642410,534.0
35.759064947,489.0
35.792487485,523.0
35.825910022,519.0
35.859332559,487.0
35.892755096,517.0
35.926177633,542.0
35.959600171,562.0
35.993022708,529.0
36.026445245,515.0
36.059867782,523.0
36.093290320,493.0
36.126712857,501.0
36.160135394,485.0
36.193557931,485.0
36.226980469,510.0
36.260403006,519.0
36.293825543,472.0
36.327248080,535.0
36.360670618,506.0
36.394093155,522.0
36.427515692,519.0
36.460938229,550.0
36.494360767,577.0
36.527783304,569.0
36.561205841,600.0
36.594628378,736.0
36.628050916,1277.0
36.661473453,2182.0
36.694895990,3664.0
36.728318527,3320.0
36.761741065,1717.0
36.795163602,866.0
36.828586139,726.0
36.862008676,673.0
36.895431214,596.0
36.928853751,561.0
36.962276288,516.0
36.995698825,532.0
37.029121362,503.0
37.062543900,495.0
37.095966437,527.0
37.129388974,532.0
37.162811511,474.0
37.196234049,474.0
37.229656586,490.0
37.263079123,519.0
37.296501660,483.0
37.329924198,507.0
37.363346735,500.0
37.396769272,461.0
37.430191809,500.0
37.463614347,483.0
37.497036884,516.0
37.530459421,466.0
37.563881958,493.0
37.597304496,501.0
37.630727033,486.0
37.664149570,461.0
37.697572107,538.0
37.730994645,518.0
37.764417182,502.0
37.797839719,487.0
37.831262256,509.0
37.864684794,499.0
37.898107331,496.0
37.931529868,440.0
37.964952405,472.0
37.998374943,516.0
38.031797480,457.0
38.065220017,481.0
38.098642554,504.0
38.132065092,534.0
38.165487629,473.0
38.198910166,435.0
38.232332703,462.0
38.265755240,495.0
38.299177778,507.0
38.332600315,485.0
38.366022852,487.0
38.399445389,517.0
38.432867927,499.0
38.466290464,496.0
38.499713001,454.0
38.533135538,476.0
38.566558076,493.0
38.599980613,491.0
38.633403150,504.0
38.666825687,454.0
38.700248225,482.0
38.733670762,480.0
38.767093299,481.0
38.800515836,524.0
38.833938374,477.0
38.867360911,485.0
38.900783448,479.0
38.934205985,543.0
38.967628523,439.0
39.001051060,458.0
39.034473597,468.0
39.067896134,479.0
39.101318672,487.0
39.134741209,438.0
39.168163746,497.0
39.201586283,472.0
39.235008821,509.0
39.268431358,479.0
39.301853895,522.0
39.335276432,481.0
39.368698970,500.0
39.402121507,505.0
39.435544044,454.0
39.468966581,489.0
39.502389118,495.0
39.535811656,508.0
39.569234193,469.0
39.602656730,485.0
39.636079267,520.0
39.669501805,481.0
39.702924342,479.0
39.736346879,464.0
39.769769416,468.0
39.803191954,523.0
39.836614491,479.0
39.870037028,467.0
39.903459565,468.0
39.936882103,472.0
39.970304640,494.0
40.003727177,514.0
40.037149714,472.0
40.070572252,472.0
40.103994789,523.0
40.137417326,515.0
40.170839863,428.0
40.204262401,461.0
40.237684938,493.0
40.271107475,462.0
40.304530012,472.0
40.337952550,499.0
40.371375087,520.0
40.404797624,440.0
40.438220161,490.0
40.471642699,510.0
40.505065236,467.0
40.538487773,433.0
40.571910310,465.0
40.605332848,457.0
40.638755385,473.0
40.672177922,494.0
40.705600459,453.0
40.739022996,465.0
40.772445534,457.0
40.805868071,483.0
40.839290608,445.0
40.872713145,483.0
40.906135683,477.0
40.939558220,436.0
40.972980757,492.0
41.006403294,464.0
41.039825832,491.0
41.073248369,508.0
41.106670906,467.0
41.140093443,475.0
41.173515981,487.0
41.206938518,469.0
41.240361055,458.0
41.273783592,453.0
41.307206130,469.0
41.340628667,462.0
41.374051204,480.0
41.407473741,478.0
41.440896279,481.0
41.474318816,447.0
41.507741353,476.0
41.541163890,495.0
41.574586428,486.0
41.608008965,451.0
41.641431502,437.0
41.674854039,479.0
41.708276577,445.0
41.741699114,481.0
41.775121651,508.0
41.808544188,469.0
41.841966726,469.0
41.875389263,475.0
41.908811800,488.0
41.942234337,487.0
41.975656874,499.0
42.009079412,490.0
42.042501949,488.0
42.075924486,547.0
42.109347023,534.0
42.142769561,480.0
42.176192098,579.0
42.209614635,580.0
42.243037172,556.0
42.276459710,635.0
42.309882247,618.0
42.343304784,556.0
42.376727321,604.0
42.410149859,669.0
42.443572396,812.0
42.476994933,869.0
42.510417470,1023.0
42.543840008,1388.0
42.577262545,2330.0
42.610685082,3538.0
42.644107619,4283.0
42.677530157,3327.0
42.710952694,2098.0
42.744375231,1381.0
42.777797768,1063.0
42.811220306,864.0
42.844642843,811.0
42.878065380,736.0
42.911487917,683.0
42.944910455,633.0
42.978332992,615.0
43.011755529,582.0
43.045178066,611.0
43.078600604,534.0
43.112023141,555.0
43.145445678,529.0
43.178868215,509.0
43.212290752,520.0
43.245713290,502.0
43.279135827,527.0
43.312558364,472.0
43.345980901,520.0
43.379403439,497.0
43.412825976,490.0
43.446248513,471.0
43.479671050,505.0
43.513093588,465.0
43.546516125,453.0
43.579938662,492.0
43.613361199,491.0
43.646783737,467.0
43.680206274,453.0
43.713628811,473.0
43.747051348,471.0
43.780473886,467.0
43.813896423,454.0
43.847318960,433.0
43.880741497,453.0
43.914164035,437.0
43.947586572,482.0
43.981009109,483.0
44.014431646,427.0
44.047854184,458.0
44.081276721,467.0
44.114699258,431.0
44.148121795,437.0
44.181544333,432.0
44.214966870,395.0
44.248389407,439.0
44.281811944,483.0
44.315234482,434.0
44.348657019,462.0
44.382079556,461.0
44.415502093,427.0
44.448924630,469.0
44.482347168,453.0
44.515769705,497.0
44.549192242,430.0
44.582614779,444.0
44.616037317,437.0
44.649459854,473.0
44.682882391,439.0
44.716304928,418.0
44.749727466,454.0
44.783150003,466.0
44.816572540,409.0
44.849995077,482.0
44.883417615,434.0
44.916840152,448.0
44.950262689,437.0
44.983685226,404.0
45.017107764,438.0
45.050530301,437.0
45.083952838,453.0
45.117375375,427.0
45.150797913,426.0
45.184220450,449.0
45.217642987,441.0
45.251065524,372.0
45.284488062,464.0
45.317910599,441.0
45.351333136,408.0
45.384755673,413.0
45.418178211,453.0
45.451600748,413.0
45.485023285,408.0
45.518445822,448.0
45.551868360,474.0
45.585290897,418.0
45.618713434,406.0
45.652135971,423.0
45.685558508,431.0
45.718981046,418.0
45.752403583,410.0
45.785826120,437.0
45.819248657,433.0
45.852671195,413.0
45.886093732,436.0
45.919516269,395.0
45.952938806,437.0
45.986361344,421.0
46.019783881,402.0
46.053206418,407.0
46.086628955,444.0
46.120051493,453.0
46.153474030,421.0
46.186896567,403.0
46.220319104,425.0
46.253741642,402.0
46.287164179,404.0
46.320586716,462.0
46.354009253,426.0
46.387431791,439.0
46.420854328,395.0
46.454276865,405.0
46.487699402,423.0
46.521121940,440.0
46.554544477,410.0
46.587967014,400.0
46.621389551,407.0
46.654812089,435.0
46.688234626,442.0
46.721657163,383.0
46.755079700,462.0
46.788502238,394.0
46.821924775,431.0
46.855347312,425.0
46.888769849,375.0
46.922192386,394.0
46.955614924,384.0
46.989037461,383.0
47.022459998,409.0
47.055882535,420.0
47.089305073,389.0
47.122727610,395.0
47.156150147,425.0
47.189572684,409.0
47.222995222,433.0
47.256417759,441.0
47.289840296,408.0
47.323262833,461.0
47.356685371,405.0
47.390107908,414.0
47.423530445,413.0
47.456952982,404.0
47.490375520,391.0
47.523798057,411.0
47.557220594,396.0
47.590643131,410.0
47.624065669,414.0
47.657488206,460.0
47.690910743,424.0
47.724333280,403.0
47.757755818,388.0
47.791178355,408.0
47.824600892,422.0
47.858023429,381.0
47.891445967,398.0
47.924868504,390.0
47.958291041,393.0
47.991713578,440.0
48.025136116,399.0
48.058558653,383.0
48.091981190,418.0
48.125403727,404.0
48.158826264,375.0
48.192248802,411.0
48.225671339,399.0
48.259093876,391.0
48.292516413,376.0
48.325938951,399.0
48.359361488,396.0
48.392784025,381.0
48.426206562,411.0
48.459629100,418.0
48.493051637,377.0
48.526474174,430.0
48.559896711,366.0
48.593319249,399.0
48.626741786,396.0
48.660164323,403.0
48.693586860,434.0
48.727009398,403.0
48.760431935,406.0
48.793854472,432.0
48.827277009,410.0
48.860699547,357.0
48.894122084,445.0
48.927544621,385.0
48.960967158,388.0
48.994389696,400.0
49.027812233,358.0
49.061234770,422.0
49.094657307,391.0
49.128079845,409.0
49.161502382,371.0
49.194924919,391.0
49.228347456,423.0
49.261769994,416.0
49.295192531,394.0
49.328615068,370.0
49.362037605,408.0
49.395460142,398.0
49.428882680,413.0
49.462305217,356.0
49.495727754,388.0
49.529150291,392.0
49.562572829,378.0
49.595995366,417.0
49.629417903,411.0
49.662840440,420.0
49.696262978,390.0
49.729685515,419.0
49.763108052,344.0
49.796530589,408.0
49.829953127,376.0
49.863375664,407.0
49.896798201,367.0
49.930220738,389.0
49.963643276,388.0
49.997065813,393.0
50.030488350,379.0
50.063910887,391.0
50.097333425,375.0
50.130755962,399.0
50.164178499,388.0
50.197601036,399.0
50.231023574,376.0
50.264446111,377.0
50.297868648,410.0
50.331291185,367.0
50.364713723,366.0
50.398136260,403.0
50.431558797,407.0
50.464981334,423.0
50.498403872,357.0
50.531826409,379.0
50.565248946,397.0
50.598671483,377.0
50.632094020,406.0
50.665516558,420.0
50.698939095,358.0
50.732361632,382.0
50.765784169,352.0
50.799206707,349.0
50.832629244,366.0
50.866051781,396.0
50.899474318,352.0
50.932896856,378.0
50.966319393,377.0
50.999741930,382.0
51.033164467,355.0
51.066587005,417.0
51.100009542,340.0
51.133432079,374.0
51.166854616,389.0
51.200277154,360.0
51.233699691,433.0
51.267122228,364.0
51.300544765,393.0
51.333967303,398.0
51.367389840,366.0
51.400812377,402.0
51.434234914,366.0
51.467657452,390.0
51.501079989,368.0
51.534502526,380.0
51.567925063,391.0
51.601347601,368.0
51.634770138,386.0
51.668192675,347.0
51.701615212,372.0
51.735037750,344.0
51.768460287,352.0
51.801882824,379.0
51.835305361,391.0
51.868727898,341.0
51.902150436,370.0
51.935572973,377.0
51.968995510,395.0
52.002418047,363.0
52.035840585,395.0
52.069263122,368.0
52.102685659,379.0
52.136108196,369.0
52.169530734,396.0
52.202953271,379.0
52.236375808,398.0
52.269798345,384.0
52.303220883,369.0
52.336643420,362.0
52.370065957,392.0
52.403488494,390.0
52.436911032,375.0
52.470333569,362.0
52.503756106,353.0
52.537178643,377.0
52.570601181,355.0
52.604023718,372.0
52.637446255,393.0
52.670868792,354.0
52.704291330,358.0
52.737713867,352.0
52.771136404,377.0
52.804558941,397.0
52.837981479,390.0
52.871404016,397.0
52.904826553,384.0
52.938249090,386.0
52.971671628,376.0
53.005094165,368.0
53.038516702,380.0
53.071939239,374.0
53.105361776,381.0
53.138784314,405.0
53.172206851,347.0
53.205629388,382.0
53.239051925,372.0
53.272474463,348.0
53.305897000,384.0
53.339319537,366.0
53.372742074,362.0
53.406164612,416.0
53.439587149,361.0
53.473009686,338.0
53.506432223,342.0
53.539854761,374.0
53.573277298,356.0
53.606699835,378.0
53.640122372,365.0
53.673544910,349.0
53.706967447,372.0
53.740389984,374.0
53.773812521,375.0
53.807235059,385.0
53.840657596,376.0
53.874080133,349.0
53.907502670,370.0
53.940925208,379.0
53.974347745,341.0
54.007770282,326.0
54.041192819,358.0
54.074615357,354.0
54.108037894,374.0
54.141460431,358.0
54.174882968,361.0
54.208305505,384.0
54.241728043,378.0
54.275150580,334.0
54.308573117,376.0
54.341995654,344.0
54.375418192,348.0
54.408840729,338.0
54.442263266,362.0
54.475685803,342.0
54.509108341,369.0
54.542530878,390.0
54.575953415,356.0
54.609375952,381.0
54.642798490,369.0
54.676221027,386.0
54.709643564,365.0
54.743066101,371.0
54.776488639,343.0
54.809911176,404.0
54.843333713,355.0
54.876756250,366.0
54.910178788,331.0
54.943601325,371.0
54.977023862,391.0
55.010446399,340.0
55.043868937,344.0
55.077291474,335.0
55.110714011,337.0
55.144136548,367.0
55.177559086,351.0
55.210981623,402.0
55.244404160,383.0
55.277826697,385.0
55.311249235,315.0
55.344671772,334.0
55.378094309,327.0
55.411516846,326.0
55.444939383,348.0
55.478361921,347.0
55.511784458,306.0
55.545206995,372.0
55.578629532,348.0
55.612052070,384.0
55.645474607,369.0
55.678897144,321.0
55.712319681,347.0
55.745742219,390.0
55.779164756,358.0
55.812587293,372.0
55.846009830,376.0
55.879432368,350.0
55.912854905,356.0
55.946277442,350.0
55.979699979,374.0
56.013122517,360.0
56.046545054,376.0
56.079967591,371.0
56.113390128,374.0
56.146812666,364.0
56.180235203,372.0
56.213657740,341.0
56.247080277,361.0
56.280502815,369.0
56.313925352,362.0
56.347347889,355.0
56.380770426,364.0
56.414192964,348.0
56.447615501,334.0
56.481038038,391.0
56.514460575,336.0
56.547883113,358.0
56.581305650,335.0
56.614728187,335.0
56.648150724,384.0
56.681573261,375.0
56.714995799,335.0
56.748418336,362.0
56.781840873,364.0
56.815263410,353.0
56.848685948,379.0
56.882108485,396.0
56.915531022,317.0
56.948953559,342.0
56.982376097,388.0
57.015798634,352.0
57.049221171,364.0
57.082643708,384.0
57.116066246,372.0
57.149488783,352.0
57.182911320,382.0
57.216333857,328.0
57.249756395,315.0
57.283178932,323.0
57.316601469,326.0
57.350024006,330.0
57.383446544,358.0
57.416869081,328.0
57.450291618,377.0
57.483714155,360.0
57.517136693,344.0
57.550559230,371.0
57.583981767,363.0
57.617404304,354.0
57.650826842,310.0
57.684249379,344.0
57.717671916,345.0
57.751094453,348.0
57.784516991,355.0
57.817939528,356.0
57.851362065,342.0
57.884784602,364.0
57.918207139,370.0
57.951629677,372.0
57.985052214,353.0
58.018474751,354.0
58.051897288,369.0
58.085319826,350.0
58.118742363,321.0
58.152164900,377.0
58.185587437,344.0
58.219009975,363.0
58.252432512,378.0
58.285855049,362.0
58.319277586,339.0
58.352700124,351.0
58.386122661,376.0
58.419545198,350.0
58.452967735,378.0
58.486390273,313.0
58.519812810,338.0
58.553235347,334.0
58.586657884,330.0
58.620080422,336.0
58.653502959,349.0
58.686925496,370.0
58.720348033,339.0
58.753770571,336.0
58.787193108,349.0
58.820615645,340.0
58.854038182,333.0
58.887460720,380.0
58.920883257,364.0
58.954305794,351.0
58.987728331,365.0
59.021150869,353.0
59.054573406,329.0
59.087995943,337.0
59.121418480,350.0
59.154841017,338.0
59.188263555,358.0
59.221686092,339.0
59.255108629,337.0
59.288531166,336.0
59.321953704,338.0
59.355376241,367.0
59.388798778,344.0
59.422221315,352.0
59.455643853,335.0
59.489066390,374.0
59.522488927,394.0
59.555911464,313.0
59.589334002,350.0
59.622756539,349.0
59.656179076,358.0
59.689601613,323.0
59.723024151,355.0
59.756446688,382.0
59.789869225,376.0
59.823291762,352.0
59.856714300,340.0
59.890136837,369.0
59.923559374,305.0
59.956981911,374.0
59.990404449,350.0
60.023826986,352.0
60.057249523,357.0
60.090672060,369.0
60.124094598,336.0
60.157517135,366.0
60.190939672,330.0
60.224362209,328.0
60.257784747,322.0
60.291207284,371.0
60.324629821,329.0
60.358052358,328.0
60.391474895,345.0
60.424897433,310.0
60.458319970,351.0
60.491742507,361.0
60.525165044,395.0
60.558587582,349.0
60.592010119,324.0
60.625432656,371.0
60.658855193,342.0
60.692277731,326.0
60.725700268,360.0
60.759122805,341.0
60.792545342,326.0
60.825967880,334.0
60.859390417,339.0
60.892812954,320.0
60.926235491,313.0
60.959658029,353.0
60.993080566,350.0
61.026503103,341.0
61.059925640,360.0
61.093348178,352.0
61.126770715,335.0
61.160193252,392.0
61.193615789,350.0
61.227038327,345.0
61.260460864,370.0
61.293883401,320.0
61.327305938,371.0
61.360728476,331.0
61.394151013,350.0
61.427573550,375.0
61.460996087,366.0
61.494418625,351.0
61.527841162,366.0
61.561263699,388.0
61.594686236,391.0
61.628108773,395.0
61.661531311,449.0
61.694953848,464.0
61.728376385,496.0
61.761798922,579.0
61.795221460,833.0
61.828643997,1270.0
61.862066534,1595.0
61.895489071,1515.0
61.928911609,1222.0
61.962334146,859.0
61.995756683,652.0
62.029179220,547.0
62.062601758,453.0
62.096024295,427.0
62.129446832,406.0
62.162869369,381.0
62.196291907,343.0
62.229714444,372.0
62.263136981,384.0
62.296559518,352.0
62.329982056,315.0
62.363404593,348.0
62.396827130,355.0
62.430249667,333.0
62.463672205,329.0
62.497094742,328.0
62.530517279,351.0
62.563939816,369.0
62.597362354,321.0
62.630784891,339.0
62.664207428,381.0
62.697629965,344.0
62.731052503,360.0
62.764475040,351.0
62.797897577,341.0
62.831320114,340.0
62.864742651,360.0
62.898165189,343.0
62.931587726,320.0
62.965010263,337.0
62.998432800,382.0
63.031855338,307.0
63.065277875,325.0
63.098700412,316.0
63.132122949,334.0
63.165545487,355.0
63.198968024,336.0
63.232390561,326.0
63.265813098,342.0
63.299235636,330.0
63.332658173,330.0
63.366080710,331.0
63.399503247,327.0
63.432925785,293.0
63.466348322,345.0
63.499770859,340.0
63.533193396,338.0
63.566615934,323.0
63.600038471,321.0
63.633461008,333.0
63.666883545,347.0
63.700306083,352.0
63.733728620,338.0
63.767151157,326.0
63.800573694,315.0
63.833996232,322.0
63.867418769,356.0
63.900841306,343.0
63.934263843,348.0
63.967686381,315.0
64.001108918,341.0
64.034531455,325.0
64.067953992,367.0
64.101376529,319.0
64.134799067,334.0
64.168221604,327.0
64.201644141,328.0
64.235066678,325.0
64.268489216,333.0
64.301911753,366.0
64.335334290,299.0
64.368756827,324.0
64.402179365,329.0
64.435601902,341.0
64.469024439,322.0
64.502446976,312.0
64.535869514,298.0
64.569292051,337.0
64.602714588,312.0
64.636137125,306.0
64.669559663,330.0
64.702982200,329.0
64.736404737,350.0
64.769827274,340.0
64.803249812,331.0
64.836672349,342.0
64.870094886,333.0
64.903517423,312.0
64.936939961,308.0
64.970362498,310.0
65.003785035,299.0
65.037207572,329.0
65.070630110,336.0
65.104052647,316.0
65.137475184,312.0
65.170897721,326.0
65.204320259,324.0
65.237742796,313.0
65.271165333,330.0
65.304587870,326.0
65.338010407,334.0
65.371432945,305.0
65.404855482,311.0
65.438278019,334.0
65.471700556,300.0
65.505123094,327.0
65.538545631,329.0
65.571968168,302.0
65.605390705,296.0
65.638813243,349.0
65.672235780,320.0
65.705658317,311.0
65.739080854,298.0
65.772503392,296.0
65.805925929,324.0
65.839348466,317.0
65.872771003,301.0
65.906193541,315.0
65.939616078,355.0
65.973038615,324.0
66.006461152,301.0
66.039883690,303.0
66.073306227,340.0
66.106728764,273.0
66.140151301,303.0
66.173573839,278.0
66.206996376,317.0
66.240418913,287.0
66.273841450,298.0
66.307263988,312.0
66.340686525,299.0
66.374109062,323.0
66.407531599,282.0
66.440954137,311.0
66.474376674,292.0
66.507799211,327.0
66.541221748,330.0
66.574644285,294.0
66.608066823,327.0
66.641489360,309.0
66.674911897,303.0
66.708334434,338.0
66.741756972,298.0
66.775179509,317.0
66.808602046,354.0
66.842024583,322.0
66.875447121,326.0
66.908869658,301.0
66.942292195,310.0
66.975714732,316.0
67.009137270,316.0
67.042559807,315.0
67.075982344,303.0
67.109404881,323.0
67.142827419,306.0
67.176249956,305.0
67.209672493,307.0
67.243095030,314.0
67.276517568,294.0
67.309940105,306.0
67.343362642,313.0
67.376785179,316.0
67.410207717,302.0
67.443630254,284.0
67.477052791,293.0
67.510475328,309.0
67.543897866,293.0
67.577320403,301.0
67.610742940,311.0
67.644165477,308.0
67.677588015,331.0
67.711010552,306.0
67.744433089,298.0
67.777855626,297.0
67.811278163,307.0
67.844700701,322.0
67.878123238,313.0
67.911545775,301.0
67.944968312,296.0
67.978390850,297.0
68.011813387,302.0
68.045235924,301.0
68.078658461,292.0
68.112080999,305.0
68.145503536,314.0
68.178926073,287.0
68.212348610,275.0
68.245771148,306.0
68.279193685,322.0
68.312616222,298.0
68.346038759,297.0
68.379461297,303.0
68.412883834,310.0
68.446306371,306.0
68.479728908,302.0
68.513151446,291.0
68.546573983,303.0
68.579996520,288.0
68.613419057,291.0
68.646841595,321.0
68.680264132,284.0
68.713686669,307.0
68.747109206,284.0
68.780531744,295.0
68.813954281,309.0
68.847376818,315.0
68.880799355,312.0
68.914221893,348.0
68.947644430,292.0
68.981066967,291.0
69.014489504,277.0
69.047912041,316.0
69.081334579,314.0
69.114757116,311.0
69.148179653,297.0
69.181602190,289.0
69.215024728,314.0
69.248447265,286.0
69.281869802,305.0
69.315292339,307.0
69.348714877,288.0
69.382137414,283.0
69.415559951,301.0
69.448982488,316.0
69.482405026,329.0
69.515827563,305.0
69.549250100,286.0
69.582672637,309.0
69.616095175,324.0
69.649517712,314.0
69.682940249,305.0
69.716362786,284.0
69.749785324,280.0
69.783207861,316.0
69.816630398,280.0
69.850052935,278.0
69.883475473,334.0
69.916898010,278.0
69.950320547,285.0
69.983743084,280.0
70.017165622,307.0
70.050588159,285.0
70.084010696,270.0
70.117433233,308.0
70.150855771,307.0
70.184278308,287.0
70.217700845,275.0
70.251123382,297.0
70.284545919,311.0
70.317968457,287.0
70.351390994,306.0
70.384813531,285.0
70.418236068,292.0
70.451658606,289.0
70.485081143,288.0
70.518503680,305.0
70.551926217,296.0
70.585348755,261.0
70.618771292,303.0
70.652193829,302.0
70.685616366,316.0
70.719038904,308.0
70.752461441,297.0
70.785883978,292.0
70.819306515,320.0
70.852729053,284.0
70.886151590,301.0
70.919574127,281.0
70.952996664,309.0
70.986419202,293.0
71.019841739,291.0
71.053264276,289.0
71.086686813,284.0
71.120109351,284.0
71.153531888,305.0
71.186954425,294.0
71.220376962,329.0
71.253799500,310.0
71.287222037,269.0
71.320644574,281.0
71.354067111,294.0
71.387489648,294.0
71.420912186,287.0
71.454334723,303.0
71.487757260,311.0
71.521179797,284.0
71.554602335,293.0
71.588024872,277.0
71.621447409,256.0
71.654869946,301.0
71.688292484,306.0
71.721715021,316.0
71.755137558,288.0
71.788560095,284.0
71.821982633,270.0
71.855405170,282.0
71.888827707,275.0
71.922250244,289.0
71.955672782,282.0
71.989095319,299.0
72.022517856,327.0
72.055940393,269.0
72.089362931,299.0
72.122785468,301.0
72.156208005,301.0
72.189630542,275.0
72.223053080,310.0
72.256475617,280.0
72.289898154,289.0
72.323320691,297.0
72.356743229,277.0
72.390165766,282.0
72.423588303,288.0
72.457010840,292.0
72.490433378,281.0
72.523855915,291.0
72.557278452,311.0
72.590700989,300.0
72.624123526,315.0
72.657546064,277.0
72.690968601,330.0
72.724391138,280.0
72.757813675,265.0
72.791236213,286.0
72.824658750,303.0
72.858081287,282.0
72.891503824,272.0
72.924926362,295.0
72.958348899,257.0
72.991771436,292.0
73.025193973,312.0
73.058616511,306.0
73.092039048,310.0
73.125461585,278.0
73.158884122,260.0
73.192306660,298.0
73.225729197,293.0
73.259151734,301.0
73.292574271,274.0
73.325996809,326.0
73.359419346,335.0
73.392841883,294.0
73.426264420,293.0
73.459686958,295.0
73.493109495,289.0
73.526532032,286.0
73.559954569,307.0
73.593377107,287.0
73.626799644,261.0
73.660222181,275.0
73.693644718,326.0
73.727067256,336.0
73.760489793,319.0
73.793912330,315.0
73.827334867,302.0
73.860757404,366.0
73.894179942,326.0
73.927602479,319.0
73.961025016,344.0
73.994447553,357.0
74.027870091,389.0
74.061292628,516.0
74.094715165,624.0
74.128137702,688.0
74.161560240,645.0
74.194982777,606.0
74.228405314,507.0
74.261827851,450.0
74.295250389,411.0
74.328672926,356.0
74.362095463,329.0
74.395518000,334.0
74.428940538,315.0
74.462363075,347.0
74.495785612,282.0
74.529208149,328.0
74.562630687,310.0
74.596053224,257.0
74.629475761,307.0
74.662898298,281.0
74.696320836,251.0
74.729743373,340.0
74.763165910,278.0
74.796588447,300.0
74.830010985,306.0
74.863433522,270.0
74.896856059,277.0
74.930278596,294.0
74.963701134,258.0
74.997123671,306.0
75.030546208,285.0
75.063968745,288.0
75.097391282,271.0
75.130813820,302.0
75.164236357,273.0
75.197658894,287.0
75.231081431,298.0
75.264503969,275.0
75.297926506,275.0
75.331349043,324.0
75.364771580,291.0
75.398194118,264.0
75.431616655,303.0
75.465039192,316.0
75.498461729,267.0
75.531884267,271.0
75.565306804,271.0
75.598729341,322.0
75.632151878,310.0
75.665574416,278.0
75.698996953,299.0
75.732419490,285.0
75.765842027,283.0
75.799264565,293.0
75.832687102,279.0
75.866109639,302.0
75.899532176,253.0
75.932954714,299.0
75.966377251,271.0
75.999799788,315.0
76.033222325,264.0
76.066644863,300.0
76.100067400,253.0
76.133489937,270.0
76.166912474,258.0
76.200335012,279.0
76.233757549,279.0
76.267180086,269.0
76.300602623,261.0
76.334025160,295.0
76.367447698,288.0
76.400870235,268.0
76.434292772,283.0
76.467715309,287.0
76.501137847,264.0
76.534560384,289.0
76.567982921,261.0
76.601405458,262.0
76.634827996,281.0
76.668250533,315.0
76.701673070,259.0
76.735095607,250.0
76.768518145,310.0
76.801940682,275.0
76.835363219,279.0
76.868785756,303.0
76.902208294,256.0
76.935630831,271.0
76.969053368,272.0
77.002475905,259.0
77.035898443,268.0
77.069320980,275.0
77.102743517,294.0
77.136166054,266.0
77.169588592,271.0
77.203011129,259.0
77.236433666,271.0
77.269856203,282.0
77.303278741,264.0
77.336701278,275.0
77.370123815,246.0
77.403546352,282.0
77.436968890,279.0
77.470391427,273.0
77.503813964,279.0
77.537236501,270.0
77.570659038,301.0
77.604081576,258.0
77.637504113,283.0
77.670926650,282.0
77.704349187,302.0
77.737771725,303.0
77.771194262,267.0
77.804616799,313.0
77.838039336,292.0
77.871461874,303.0
77.904884411,317.0
77.938306948,356.0
77.971729485,391.0
78.005152023,508.0
78.038574560,507.0
78.071997097,481.0
78.105419634,445.0
78.138842172,413.0
78.172264709,371.0
78.205687246,313.0
78.239109783,303.0
78.272532321,308.0
78.305954858,292.0
78.339377395,286.0
78.372799932,307.0
78.406222470,280.0
78.439645007,298.0
78.473067544,322.0
78.506490081,308.0
78.539912619,284.0
78.573335156,286.0
78.606757693,292.0
78.640180230,299.0
78.673602768,265.0
78.707025305,283.0
78.740447842,277.0
78.773870379,256.0
78.807292916,278.0
78.840715454,265.0
78.874137991,281.0
78.907560528,293.0
78.940983065,265.0
78.974405603,306.0
79.007828140,301.0
79.041250677,255.0
79.074673214,279.0
79.108095752,266.0
79.141518289,284.0
79.174940826,309.0
79.208363363,291.0
79.241785901,259.0
79.275208438,293.0
79.308630975,271.0
79.342053512,264.0
79.375476050,271.0
79.408898587,255.0
79.442321124,251.0
79.475743661,272.0
79.509166199,272.0
79.542588736,289.0
79.576011273,287.0
79.609433810,266.0
79.642856348,266.0
79.676278885,262.0
79.709701422,275.0
79.743123959,267.0
79.776546497,286.0
79.809969034,234.0
79.843391571,277.0
79.876814108,264.0
79.910236646,291.0
79.943659183,288.0
79.977081720,253.0
